[Header]
Application Name	LabSolutions
Version	5.81 SP1
Data File Name	D:\2203201\13.lcd
Output Date	2024/4/10
Output Time	10:02:36

[File Information]
Type	Data File
Generated	2024/4/10 9:34:16
Generated by	System Administrator
Modified	2024/4/10 9:38:44
Modified by	System Administrator

[Sample Information]
Operator Name	System Administrator
Acquired	2024/4/10 9:35:03
Sample Type	0:Unknown
Level	0
Sample Name	02
Sample ID	
ISTD Amount1	1
ISTD Amount2	1
ISTD Amount3	1
ISTD Amount4	1
ISTD Amount5	1
ISTD Amount6	1
ISTD Amount7	1
ISTD Amount8	1
ISTD Amount9	1
ISTD Amount10	1
ISTD Amount11	1
ISTD Amount12	1
ISTD Amount13	1
ISTD Amount14	1
ISTD Amount15	1
ISTD Amount16	1
ISTD Amount17	1
ISTD Amount18	1
ISTD Amount19	1
ISTD Amount20	1
ISTD Amount21	1
ISTD Amount22	1
ISTD Amount23	1
ISTD Amount24	1
ISTD Amount25	1
ISTD Amount26	1
ISTD Amount27	1
ISTD Amount28	1
ISTD Amount29	1
ISTD Amount30	1
ISTD Amount31	1
ISTD Amount32	1
Sample Amount	1
Dilution Factor	1
Vial#	1
Injection Volume	20

[Original Files]
Data File	D:\2203201\13.lcd
Method File	C:\LabSolutions\Data\Project1\柱效试验.lcm
Batch File	
Report Format File	C:\LabSolutions\Data\Project1\柱效报告.lsr

[File Description]
report

[Configuration]
Instrument Name	21402
Instrument #	1
Line #	1
# of Detectors	1
Detector ID	Detector A
Detector Name	检测器A
# of Channels	1

[Peak Table(Detector A)]
# of Peaks	2
Peak#	R.Time	I.Time	F.Time	Area	Height	A/H	Conc.	Mark	ID#	Name	k'	Plate #	Plate Ht.	Tailing	Resolution	Sep.Factor	Area Ratio	Height Ratio	Conc. %	Norm Conc.
1	2.533	2.400	2.733	851143	159356	5.341	0.000	   			0.000	4286	34.998	1.175	0.000	0.000	0	0	0.000	0.000
2	2.868	2.733	3.108	1782327	312720	5.699	0.000	 V 			0.132	4910	30.552	1.160	2.103	0.000	0	0	0.000	0.000

[Compound Results(Detector A)]
# of IDs	0

[Group Results(Detector A)]
# of Groups	0

[Slice Data(Detector A)]
# of Slices	0

[LC Chromatogram(Detector A-Ch1)]
Interval(msec)	500
# of Points	442
Start Time(min)	0.000
End Time(min)	3.675
Intensity Units	mV
Intensity Multiplier	0.001
Wavelength(nm)	254nm
R.Time (min)	Intensity
0.00000	-292
0.00833	-292
0.01667	0
0.02500	0
0.03333	-0
0.04167	-0
0.05000	-1
0.05833	-1
0.06667	-1
0.07500	-1
0.08333	-1
0.09167	-0
0.10000	1
0.10833	1
0.11667	1
0.12500	0
0.13333	0
0.14167	0
0.15000	0
0.15833	1
0.16667	2
0.17500	1
0.18333	1
0.19167	1
0.20000	-0
0.20833	-0
0.21667	-0
0.22500	-0
0.23333	0
0.24167	2
0.25000	2
0.25833	2
0.26667	2
0.27500	2
0.28333	2
0.29167	2
0.30000	1
0.30833	1
0.31667	1
0.32500	2
0.33333	2
0.34167	3
0.35000	3
0.35833	3
0.36667	4
0.37500	3
0.38333	2
0.39167	2
0.40000	2
0.40833	3
0.41667	2
0.42500	2
0.43333	3
0.44167	3
0.45000	4
0.45833	5
0.46667	6
0.47500	7
0.48333	7
0.49167	7
0.50000	6
0.50833	6
0.51667	7
0.52500	7
0.53333	8
0.54167	8
0.55000	9
0.55833	10
0.56667	9
0.57500	8
0.58333	8
0.59167	9
0.60000	10
0.60833	10
0.61667	11
0.62500	11
0.63333	10
0.64167	9
0.65000	10
0.65833	10
0.66667	10
0.67500	10
0.68333	10
0.69167	10
0.70000	12
0.70833	13
0.71667	13
0.72500	13
0.73333	13
0.74167	13
0.75000	13
0.75833	13
0.76667	13
0.77500	14
0.78333	14
0.79167	15
0.80000	15
0.80833	15
0.81667	15
0.82500	15
0.83333	14
0.84167	14
0.85000	15
0.85833	16
0.86667	17
0.87500	17
0.88333	18
0.89167	18
0.90000	19
0.90833	19
0.91667	19
0.92500	18
0.93333	18
0.94167	18
0.95000	18
0.95833	18
0.96667	18
0.97500	18
0.98333	19
0.99167	20
1.00000	21
1.00833	21
1.01667	21
1.02500	22
1.03333	23
1.04167	23
1.05000	24
1.05833	26
1.06667	27
1.07500	29
1.08333	30
1.09167	31
1.10000	34
1.10833	37
1.11667	40
1.12500	44
1.13333	49
1.14167	54
1.15000	60
1.15833	68
1.16667	75
1.17500	84
1.18333	93
1.19167	104
1.20000	116
1.20833	129
1.21667	142
1.22500	157
1.23333	171
1.24167	185
1.25000	200
1.25833	214
1.26667	227
1.27500	238
1.28333	248
1.29167	251
1.30000	247
1.30833	236
1.31667	223
1.32500	209
1.33333	195
1.34167	184
1.35000	174
1.35833	166
1.36667	159
1.37500	155
1.38333	150
1.39167	148
1.40000	145
1.40833	143
1.41667	141
1.42500	139
1.43333	138
1.44167	136
1.45000	134
1.45833	133
1.46667	132
1.47500	131
1.48333	130
1.49167	128
1.50000	127
1.50833	126
1.51667	126
1.52500	125
1.53333	125
1.54167	124
1.55000	125
1.55833	127
1.56667	128
1.57500	129
1.58333	130
1.59167	131
1.60000	132
1.60833	133
1.61667	133
1.62500	132
1.63333	132
1.64167	132
1.65000	133
1.65833	136
1.66667	138
1.67500	140
1.68333	143
1.69167	148
1.70000	160
1.70833	186
1.71667	237
1.72500	318
1.73333	423
1.74167	535
1.75000	637
1.75833	718
1.76667	778
1.77500	821
1.78333	853
1.79167	879
1.80000	900
1.80833	917
1.81667	927
1.82500	926
1.83333	910
1.84167	871
1.85000	804
1.85833	714
1.86667	611
1.87500	511
1.88333	423
1.89167	353
1.90000	303
1.90833	269
1.91667	249
1.92500	238
1.93333	232
1.94167	229
1.95000	226
1.95833	224
1.96667	221
1.97500	216
1.98333	211
1.99167	206
2.00000	204
2.00833	204
2.01667	206
2.02500	211
2.03333	218
2.04167	230
2.05000	252
2.05833	293
2.06667	362
2.07500	457
2.08333	567
2.09167	671
2.10000	752
2.10833	802
2.11667	822
2.12500	821
2.13333	808
2.14167	790
2.15000	767
2.15833	736
2.16667	697
2.17500	649
2.18333	596
2.19167	540
2.20000	485
2.20833	433
2.21667	388
2.22500	348
2.23333	316
2.24167	290
2.25000	269
2.25833	254
2.26667	241
2.27500	233
2.28333	226
2.29167	222
2.30000	220
2.30833	217
2.31667	215
2.32500	214
2.33333	213
2.34167	211
2.35000	209
2.35833	206
2.36667	205
2.37500	203
2.38333	202
2.39167	204
2.40000	208
2.40833	218
2.41667	250
2.42500	354
2.43333	673
2.44167	1539
2.45000	3605
2.45833	7940
2.46667	15944
2.47500	28954
2.48333	47562
2.49167	70935
2.50000	96736
2.50833	121637
2.51667	142112
2.52500	155290
2.53333	159641
2.54167	155236
2.55000	143453
2.55833	126462
2.56667	106700
2.57500	86429
2.58333	67439
2.59167	50878
2.60000	37247
2.60833	26555
2.61667	18513
2.62500	12684
2.63333	8596
2.64167	5807
2.65000	3948
2.65833	2730
2.66667	1940
2.67500	1431
2.68333	1104
2.69167	889
2.70000	746
2.70833	648
2.71667	580
2.72500	536
2.73333	520
2.74167	557
2.75000	723
2.75833	1214
2.76667	2468
2.77500	5315
2.78333	11146
2.79167	21928
2.80000	39901
2.80833	66846
2.81667	103043
2.82500	146683
2.83333	193906
2.84167	239345
2.85000	277231
2.85833	302758
2.86667	313199
2.87500	308241
2.88333	289678
2.89167	260779
2.90000	225533
2.90833	187954
2.91667	151404
2.92500	118206
2.93333	89664
2.94167	66248
2.95000	47816
2.95833	33840
2.96667	23584
2.97500	16263
2.98333	11159
2.99167	7670
3.00000	5324
3.00833	3767
3.01667	2742
3.02500	2068
3.03333	1622
3.04167	1323
3.05000	1118
3.05833	974
3.06667	871
3.07500	793
3.08333	734
3.09167	686
3.10000	648
3.10833	618
3.11667	596
3.12500	580
3.13333	567
3.14167	558
3.15000	549
3.15833	539
3.16667	526
3.17500	510
3.18333	490
3.19167	469
3.20000	448
3.20833	428
3.21667	410
3.22500	396
3.23333	386
3.24167	381
3.25000	381
3.25833	383
3.26667	387
3.27500	390
3.28333	394
3.29167	398
3.30000	401
3.30833	402
3.31667	402
3.32500	401
3.33333	398
3.34167	393
3.35000	387
3.35833	379
3.36667	367
3.37500	355
3.38333	343
3.39167	329
3.40000	315
3.40833	303
3.41667	292
3.42500	283
3.43333	276
3.44167	271
3.45000	266
3.45833	262
3.46667	258
3.47500	254
3.48333	249
3.49167	243
3.50000	238
3.50833	233
3.51667	227
3.52500	223
3.53333	218
3.54167	214
3.55000	209
3.55833	204
3.56667	201
3.57500	198
3.58333	196
3.59167	195
3.60000	193
3.60833	192
3.61667	191
3.62500	191
3.63333	192
3.64167	193
3.65000	195
3.65833	197
3.66667	198
3.67500	199

[LC Status Trace(Pump A Pressure)]
Interval(msec)	1000
# of Points	221
Start Time(min)	0.000
End Time(min)	3.667
Intensity Units	MPa
Intensity Multiplier	0.0980665
R.Time (min)	Intensity
0.00000	88.0
0.01667	88.0
0.03333	86.4
0.05000	87.8
0.06667	86.7
0.08333	84.3
0.10000	85.9
0.11667	87.8
0.13333	86.5
0.15000	87.3
0.16667	86.7
0.18333	87.7
0.20000	88.5
0.21667	86.9
0.23333	86.9
0.25000	88.5
0.26667	87.4
0.28333	87.8
0.30000	88.7
0.31667	87.6
0.33333	88.1
0.35000	88.7
0.36667	87.8
0.38333	88.1
0.40000	86.9
0.41667	88.0
0.43333	88.3
0.45000	86.9
0.46667	88.1
0.48333	88.5
0.50000	87.0
0.51667	87.7
0.53333	88.1
0.55000	86.9
0.56667	88.3
0.58333	88.9
0.60000	86.9
0.61667	88.5
0.63333	88.7
0.65000	87.7
0.66667	88.7
0.68333	86.9
0.70000	88.0
0.71667	88.7
0.73333	87.0
0.75000	88.1
0.76667	87.7
0.78333	87.2
0.80000	88.2
0.81667	86.9
0.83333	87.6
0.85000	88.5
0.86667	88.9
0.88333	87.8
0.90000	88.6
0.91667	87.8
0.93333	87.8
0.95000	88.9
0.96667	87.7
0.98333	88.1
1.00000	88.9
1.01667	87.8
1.03333	88.2
1.05000	86.5
1.06667	87.8
1.08333	88.3
1.10000	86.9
1.11667	88.2
1.13333	88.3
1.15000	88.6
1.16667	88.2
1.18333	88.7
1.20000	87.6
1.21667	88.2
1.23333	88.7
1.25000	87.6
1.26667	88.1
1.28333	88.5
1.30000	87.3
1.31667	88.1
1.33333	88.6
1.35000	87.4
1.36667	88.3
1.38333	87.0
1.40000	87.7
1.41667	88.6
1.43333	86.5
1.45000	87.7
1.46667	88.6
1.48333	87.3
1.50000	88.3
1.51667	88.6
1.53333	87.2
1.55000	88.1
1.56667	87.6
1.58333	87.8
1.60000	88.7
1.61667	87.6
1.63333	88.1
1.65000	87.0
1.66667	87.7
1.68333	88.1
1.70000	86.7
1.71667	88.0
1.73333	88.5
1.75000	87.0
1.76667	88.0
1.78333	88.6
1.80000	87.6
1.81667	88.2
1.83333	88.7
1.85000	87.6
1.86667	88.1
1.88333	88.7
1.90000	87.7
1.91667	88.6
1.93333	86.8
1.95000	87.8
1.96667	88.7
1.98333	87.0
2.00000	88.0
2.01667	88.2
2.03333	87.2
2.05000	88.2
2.06667	86.9
2.08333	87.6
2.10000	88.5
2.11667	86.9
2.13333	87.7
2.15000	88.2
2.16667	87.4
2.18333	87.7
2.20000	88.7
2.21667	87.4
2.23333	87.4
2.25000	88.9
2.26667	87.2
2.28333	87.7
2.30000	88.6
2.31667	87.6
2.33333	87.8
2.35000	88.7
2.36667	87.8
2.38333	88.0
2.40000	88.9
2.41667	88.3
2.43333	88.3
2.45000	87.0
2.46667	88.1
2.48333	88.5
2.50000	86.9
2.51667	88.1
2.53333	87.3
2.55000	87.2
2.56667	88.2
2.58333	86.9
2.60000	88.1
2.61667	88.7
2.63333	87.2
2.65000	88.0
2.66667	86.8
2.68333	87.4
2.70000	88.3
2.71667	86.8
2.73333	87.6
2.75000	88.5
2.76667	87.2
2.78333	87.8
2.80000	88.5
2.81667	87.7
2.83333	88.0
2.85000	88.7
2.86667	87.7
2.88333	88.0
2.90000	88.1
2.91667	87.8
2.93333	88.3
2.95000	86.9
2.96667	88.0
2.98333	88.5
3.00000	86.9
3.01667	88.1
3.03333	88.6
3.05000	87.4
3.06667	88.3
3.08333	88.7
3.10000	87.8
3.11667	88.5
3.13333	88.7
3.15000	87.7
3.16667	88.1
3.18333	86.7
3.20000	88.0
3.21667	88.7
3.23333	86.9
3.25000	88.0
3.26667	88.6
3.28333	87.2
3.30000	88.1
3.31667	86.8
3.33333	87.4
3.35000	88.2
3.36667	86.9
3.38333	87.6
3.40000	88.3
3.41667	87.3
3.43333	87.7
3.45000	88.7
3.46667	87.4
3.48333	88.0
3.50000	88.5
3.51667	87.6
3.53333	88.1
3.55000	86.7
3.56667	87.7
3.58333	88.2
3.60000	86.9
3.61667	87.8
3.63333	88.2
3.65000	87.2
3.66667	88.3

[LC Status Trace(Pump A Degasser Pressure)]
Interval(msec)	1000
# of Points	221
Start Time(min)	0.000
End Time(min)	3.667
Intensity Units	MPa
Intensity Multiplier	0.0980665
R.Time (min)	Intensity
0.00000	0.0
0.01667	0.0
0.03333	0.0
0.05000	0.0
0.06667	0.0
0.08333	0.0
0.10000	0.0
0.11667	0.0
0.13333	0.0
0.15000	0.0
0.16667	0.0
0.18333	0.0
0.20000	0.0
0.21667	0.0
0.23333	0.0
0.25000	0.0
0.26667	0.0
0.28333	0.0
0.30000	0.0
0.31667	0.0
0.33333	0.0
0.35000	0.0
0.36667	0.0
0.38333	0.0
0.40000	0.0
0.41667	0.0
0.43333	0.0
0.45000	0.0
0.46667	0.0
0.48333	0.0
0.50000	0.0
0.51667	0.0
0.53333	0.0
0.55000	0.0
0.56667	0.0
0.58333	0.0
0.60000	0.0
0.61667	0.0
0.63333	0.0
0.65000	0.0
0.66667	0.0
0.68333	0.0
0.70000	0.0
0.71667	0.0
0.73333	0.0
0.75000	0.0
0.76667	0.0
0.78333	0.0
0.80000	0.0
0.81667	0.0
0.83333	0.0
0.85000	0.0
0.86667	0.0
0.88333	0.0
0.90000	0.0
0.91667	0.0
0.93333	0.0
0.95000	0.0
0.96667	0.0
0.98333	0.0
1.00000	0.0
1.01667	0.0
1.03333	0.0
1.05000	0.0
1.06667	0.0
1.08333	0.0
1.10000	0.0
1.11667	0.0
1.13333	0.0
1.15000	0.0
1.16667	0.0
1.18333	0.0
1.20000	0.0
1.21667	0.0
1.23333	0.0
1.25000	0.0
1.26667	0.0
1.28333	0.0
1.30000	0.0
1.31667	0.0
1.33333	0.0
1.35000	0.0
1.36667	0.0
1.38333	0.0
1.40000	0.0
1.41667	0.0
1.43333	0.0
1.45000	0.0
1.46667	0.0
1.48333	0.0
1.50000	0.0
1.51667	0.0
1.53333	0.0
1.55000	0.0
1.56667	0.0
1.58333	0.0
1.60000	0.0
1.61667	0.0
1.63333	0.0
1.65000	0.0
1.66667	0.0
1.68333	0.0
1.70000	0.0
1.71667	0.0
1.73333	0.0
1.75000	0.0
1.76667	0.0
1.78333	0.0
1.80000	0.0
1.81667	0.0
1.83333	0.0
1.85000	0.0
1.86667	0.0
1.88333	0.0
1.90000	0.0
1.91667	0.0
1.93333	0.0
1.95000	0.0
1.96667	0.0
1.98333	0.0
2.00000	0.0
2.01667	0.0
2.03333	0.0
2.05000	0.0
2.06667	0.0
2.08333	0.0
2.10000	0.0
2.11667	0.0
2.13333	0.0
2.15000	0.0
2.16667	0.0
2.18333	0.0
2.20000	0.0
2.21667	0.0
2.23333	0.0
2.25000	0.0
2.26667	0.0
2.28333	0.0
2.30000	0.0
2.31667	0.0
2.33333	0.0
2.35000	0.0
2.36667	0.0
2.38333	0.0
2.40000	0.0
2.41667	0.0
2.43333	0.0
2.45000	0.0
2.46667	0.0
2.48333	0.0
2.50000	0.0
2.51667	0.0
2.53333	0.0
2.55000	0.0
2.56667	0.0
2.58333	0.0
2.60000	0.0
2.61667	0.0
2.63333	0.0
2.65000	0.0
2.66667	0.0
2.68333	0.0
2.70000	0.0
2.71667	0.0
2.73333	0.0
2.75000	0.0
2.76667	0.0
2.78333	0.0
2.80000	0.0
2.81667	0.0
2.83333	0.0
2.85000	0.0
2.86667	0.0
2.88333	0.0
2.90000	0.0
2.91667	0.0
2.93333	0.0
2.95000	0.0
2.96667	0.0
2.98333	0.0
3.00000	0.0
3.01667	0.0
3.03333	0.0
3.05000	0.0
3.06667	0.0
3.08333	0.0
3.10000	0.0
3.11667	0.0
3.13333	0.0
3.15000	0.0
3.16667	0.0
3.18333	0.0
3.20000	0.0
3.21667	0.0
3.23333	0.0
3.25000	0.0
3.26667	0.0
3.28333	0.0
3.30000	0.0
3.31667	0.0
3.33333	0.0
3.35000	0.0
3.36667	0.0
3.38333	0.0
3.40000	0.0
3.41667	0.0
3.43333	0.0
3.45000	0.0
3.46667	0.0
3.48333	0.0
3.50000	0.0
3.51667	0.0
3.53333	0.0
3.55000	0.0
3.56667	0.0
3.58333	0.0
3.60000	0.0
3.61667	0.0
3.63333	0.0
3.65000	0.0
3.66667	0.0

[LC Status Trace(RF A Cell Temp.)]
Interval(msec)	1000
# of Points	221
Start Time(min)	0.000
End Time(min)	3.667
Intensity Units	C
Intensity Multiplier	1
R.Time (min)	Intensity
0.00000	39.99
0.01667	39.99
0.03333	39.97
0.05000	39.99
0.06667	40.00
0.08333	40.00
0.10000	39.95
0.11667	39.98
0.13333	39.96
0.15000	39.96
0.16667	39.91
0.18333	39.93
0.20000	39.95
0.21667	39.95
0.23333	39.95
0.25000	40.00
0.26667	40.00
0.28333	39.99
0.30000	40.00
0.31667	40.05
0.33333	40.02
0.35000	40.00
0.36667	40.00
0.38333	40.00
0.40000	39.99
0.41667	39.99
0.43333	40.00
0.45000	40.02
0.46667	40.02
0.48333	40.00
0.50000	39.99
0.51667	39.97
0.53333	40.00
0.55000	39.99
0.56667	39.99
0.58333	39.95
0.60000	39.93
0.61667	39.89
0.63333	39.97
0.65000	39.96
0.66667	40.00
0.68333	40.00
0.70000	40.00
0.71667	40.00
0.73333	40.00
0.75000	40.00
0.76667	40.00
0.78333	40.02
0.80000	40.00
0.81667	40.00
0.83333	40.00
0.85000	39.96
0.86667	39.93
0.88333	39.95
0.90000	39.97
0.91667	39.98
0.93333	39.99
0.95000	39.99
0.96667	39.97
0.98333	40.00
1.00000	40.00
1.01667	40.00
1.03333	40.00
1.05000	40.00
1.06667	39.99
1.08333	40.07
1.10000	40.00
1.11667	40.03
1.13333	40.07
1.15000	40.00
1.16667	40.00
1.18333	40.02
1.20000	40.00
1.21667	40.03
1.23333	40.03
1.25000	40.00
1.26667	40.00
1.28333	39.98
1.30000	39.99
1.31667	39.99
1.33333	40.03
1.35000	40.03
1.36667	39.99
1.38333	40.00
1.40000	39.98
1.41667	39.98
1.43333	40.00
1.45000	40.03
1.46667	40.05
1.48333	40.00
1.50000	39.99
1.51667	39.98
1.53333	39.98
1.55000	39.96
1.56667	39.93
1.58333	39.93
1.60000	39.95
1.61667	39.96
1.63333	39.96
1.65000	39.98
1.66667	39.91
1.68333	39.95
1.70000	39.97
1.71667	39.93
1.73333	39.93
1.75000	39.93
1.76667	39.98
1.78333	39.99
1.80000	39.98
1.81667	39.96
1.83333	39.96
1.85000	39.96
1.86667	39.96
1.88333	39.97
1.90000	39.93
1.91667	39.99
1.93333	40.00
1.95000	40.00
1.96667	40.00
1.98333	39.96
2.00000	39.99
2.01667	40.00
2.03333	40.03
2.05000	39.99
2.06667	40.00
2.08333	40.00
2.10000	40.00
2.11667	40.00
2.13333	40.00
2.15000	40.03
2.16667	40.00
2.18333	39.93
2.20000	39.93
2.21667	39.99
2.23333	40.02
2.25000	40.00
2.26667	39.96
2.28333	40.00
2.30000	40.00
2.31667	40.00
2.33333	40.00
2.35000	40.03
2.36667	40.02
2.38333	40.00
2.40000	39.99
2.41667	40.00
2.43333	40.00
2.45000	39.99
2.46667	40.00
2.48333	40.00
2.50000	40.00
2.51667	40.00
2.53333	40.00
2.55000	39.98
2.56667	39.99
2.58333	40.00
2.60000	40.00
2.61667	40.00
2.63333	40.00
2.65000	39.99
2.66667	40.00
2.68333	40.00
2.70000	40.00
2.71667	40.00
2.73333	40.00
2.75000	39.99
2.76667	40.00
2.78333	39.99
2.80000	40.00
2.81667	39.97
2.83333	40.00
2.85000	40.00
2.86667	39.99
2.88333	40.02
2.90000	40.00
2.91667	40.00
2.93333	39.96
2.95000	39.98
2.96667	39.98
2.98333	39.96
3.00000	39.99
3.01667	39.93
3.03333	39.93
3.05000	40.02
3.06667	40.00
3.08333	40.00
3.10000	39.99
3.11667	40.03
3.13333	40.02
3.15000	40.00
3.16667	40.02
3.18333	40.05
3.20000	40.02
3.21667	40.00
3.23333	39.99
3.25000	39.98
3.26667	39.96
3.28333	39.91
3.30000	39.95
3.31667	39.97
3.33333	39.95
3.35000	39.91
3.36667	39.93
3.38333	39.93
3.40000	39.91
3.41667	39.97
3.43333	40.00
3.45000	40.00
3.46667	40.00
3.48333	40.00
3.50000	40.00
3.51667	40.03
3.53333	40.02
3.55000	40.00
3.56667	40.05
3.58333	40.00
3.60000	39.99
3.61667	39.97
3.63333	39.97
3.65000	39.97
3.66667	39.99

[Fraction Collection Report]
# of Fractions	0
